t x(t) v(t)
0  1.1  1
0.1  1.075  0.8
0.2  1.06007  0.8
0.3  1.03534  0.8
0.4  1.00106  0.8
0.5  0.957583  0.8
0.6  0.905336  0.8
0.7  0.844842  0.8
0.8  0.776707  0.8
0.9  0.70161  0.8
1  0.620302  0.8
1.1  0.533596  0.8
1.2  0.442358  0.8
1.3  0.347499  0.8
1.4  0.249967  0.8
1.5  0.150737  0.8
1.6  0.0508005  0.8
1.7  -0.0488445  0.8
1.8  -0.147202  0.8
1.9  -0.24329  0.8
2  -0.336147  0.8
2.1  -0.424846  0.8
2.2  -0.508501  0.8
2.3  -0.586276  0.8
2.4  -0.657394  0.8
2.5  -0.721144  0.8
2.6  -0.776889  0.8
2.7  -0.824072  0.8
2.8  -0.862222  0.8
2.9  -0.890958  0.8
3  -0.909992  0.8
3.1  -0.919135  0.8
3.2  -0.918295  0.8
3.3  -0.90748  0.8
3.4  -0.886798  0.8
3.5  -0.856457  0.8
3.6  -0.816758  0.8
3.7  -0.7681  0.8
3.8  -0.710968  0.8
3.9  -0.645932  0.8
4  -0.573644  0.8
4.1  -0.494824  0.8
4.2  -0.410261  0.8
4.3  -0.320799  0.8
4.4  -0.227333  0.8
4.5  -0.130796  0.8
4.6  -0.0321525  0.8
4.7  0.0676113  0.8
4.8  0.167499  0.8
4.9  0.266512  0.8
5  0.363662  0.8
5.1  0.457978  0.8
5.2  0.548517  0.8
5.3  0.634374  0.8
5.4  0.714693  0.8
5.5  0.78867  0.8
5.6  0.855566  0.8
5.7  0.914713  0.8
5.8  0.96552  0.8
5.9  1.00748  0.8
6  1.04017  0.8
6.1  1.06327  0.8
6.2  1.07654  0.8
6.3  1.07986  0.8
6.4  1.07318  0.8
6.5  1.05659  0.8
6.6  1.03023  0.8
6.7  0.994383  0.8
6.8  0.949397  0.8
6.9  0.895725  0.8
7  0.833902  0.8
7.1  0.764547  0.8
7.2  0.688351  0.8
7.3  0.606078  0.8
7.4  0.518547  0.8
7.5  0.426635  0.8
7.6  0.33126  0.8
7.7  0.233374  0.8
7.8  0.133955  0.8
7.9  0.0339979  0.8
8  -0.0655  0.8
8.1  -0.163544  0.8
8.2  -0.259155  0.8
8.3  -0.351377  0.8
8.4  -0.439289  0.8
8.5  -0.522012  0.8
8.6  -0.59872  0.8
8.7  -0.668647  0.8
8.8  -0.731093  0.8
8.9  -0.785435  0.8
9  -0.83113  0.8
9.1  -0.867722  0.8
9.2  -0.894844  0.8
9.3  -0.912225  0.8
9.4  -0.919693  0.8
9.5  -0.917172  0.8
9.6  -0.904688  0.8
9.7  -0.882365  0.8
9.8  -0.850426  0.8
9.9  -0.809191  0.8
10  -0.759072  0.8
10.1  -0.700568  0.8
10.2  -0.634266  0.8
10.3  -0.560826  0.8
10.4  -0.480984  0.8
10.5  -0.395537  0.8
10.6  -0.305338  0.8
10.7  -0.211289  0.8
10.8  -0.11433  0.8
10.9  -0.0154289  0.8
11  0.0844257  0.8
11.1  0.184236  0.8
11.2  0.283005  0.8
11.3  0.379745  0.8
11.4  0.473491  0.8
11.5  0.563305  0.8
11.6  0.64829  0.8
11.7  0.727596  0.8
11.8  0.800432  0.8
11.9  0.86607  0.8
12  0.923854  0.8
12.1  0.973206  0.8
12.2  1.01363  0.8
12.3  1.04473  0.8
12.4  1.06619  0.8
12.5  1.0778  0.8
12.6  1.07943  0.8
12.7  1.07108  0.8
12.8  1.05283  0.8
12.9  1.02486  0.8
13  0.987447  0.8
13.1  0.940967  0.8
13.2  0.885884  0.8
13.3  0.822749  0.8
13.4  0.752193  0.8
13.5  0.674921  0.8
13.6  0.591704  0.8
13.7  0.503375  0.8
13.8  0.410815  0.8
13.9  0.31495  0.8
14  0.216737  0.8
14.1  0.117158  0.8
14.2  0.0172083  0.8
14.3  -0.0821144  0.8
14.4  -0.179817  0.8
14.5  -0.274924  0.8
14.6  -0.366485  0.8
14.7  -0.453584  0.8
14.8  -0.535352  0.8
14.9  -0.610972  0.8
15  -0.679688  0.8
15.1  -0.740813  0.8
15.2  -0.793737  0.8
15.3  -0.837931  0.8
15.4  -0.872953  0.8
15.5  -0.898453  0.8
15.6  -0.914178  0.8
15.7  -0.919968  0.8
15.8  -0.915768  0.8
15.9  -0.901618  0.8
16  -0.877659  0.8
16.1  -0.844133  0.8
16.2  -0.801372  0.8
16.3  -0.749806  0.8
16.4  -0.689948  0.8
16.5  -0.622397  0.8
16.6  -0.547828  0.8
16.7  -0.466986  0.8
16.8  -0.380679  0.8
16.9  -0.289768  0.8
17  -0.195163  0.8
17.1  -0.0978091  0.8
17.2  0.00132181  0.8
17.3  0.101239  0.8
17.4  0.200944  0.8
17.5  0.29944  0.8
17.6  0.395744  0.8
17.7  0.488893  0.8
17.8  0.577956  0.8
17.9  0.662044  0.8
18  0.740317  0.8
18.1  0.811991  0.8
18.2  0.876352  0.8
18.3  0.932757  0.8
18.4  0.98064  0.8
18.5  1.01952  0.8
18.6  1.04902  0.8
18.7  1.06884  0.8
18.8  1.07877  0.8
18.9  1.07873  0.8
19  1.0687  0.8
19.1  1.0488  0.8
19.2  1.01922  0.8
19.3  0.980254  0.8
19.4  0.932292  0.8
19.5  0.875815  0.8
19.6  0.811386  0.8
19.7  0.739649  0.8
19.8  0.661322  0.8
19.9  0.577186  0.8
20  0.488082  0.8
20.1  0.394901  0.8
20.2  0.298573  0.8
20.3  0.200062  0.8
20.4  0.100351  0.8
20.5  0.000436433  0.8
20.6  -0.098683  0.8
20.7  -0.196017  0.8
20.8  -0.290593  0.8
20.9  -0.381467  0.8
21  -0.467729  0.8
21.1  -0.548519  0.8
21.2  -0.623029  0.8
21.3  -0.690514  0.8
21.4  -0.750301  0.8
21.5  -0.801792  0.8
21.6  -0.844472  0.8
21.7  -0.877915  0.8
21.8  -0.901787  0.8
21.9  -0.915849  0.8
22  -0.919961  0.8
22.1  -0.914082  0.8
22.2  -0.89827  0.8
22.3  -0.872683  0.8
22.4  -0.837578  0.8
22.5  -0.793305  0.8
22.6  -0.740305  0.8
22.7  -0.67911  0.8
22.8  -0.61033  0.8
22.9  -0.534652  0.8
23  -0.452833  0.8
23.1  -0.36569  0.8
23.2  -0.274094  0.8
23.3  -0.17896  0.8
23.4  -0.081238  0.8
23.5  0.0180947  0.8
23.6  0.118046  0.8
23.7  0.217617  0.8
23.8  0.315813  0.8
23.9  0.411653  0.8
24  0.504179  0.8
24.1  0.592467  0.8
24.2  0.675634  0.8
24.3  0.75285  0.8
24.4  0.823344  0.8
24.5  0.886409  0.8
24.6  0.941418  0.8
24.7  0.98782  0.8
24.8  1.02515  0.8
24.9  1.05304  0.8
25  1.0712  0.8
25.1  1.07946  0.8
25.2  1.07774  0.8
25.3  1.06604  0.8
25.4  1.0445  0.8
25.5  1.01332  0.8
25.6  0.972806  0.8
25.7  0.923377  0.8
25.8  0.865521  0.8
25.9  0.799816  0.8
26  0.726919  0.8
26.1  0.647559  0.8
26.2  0.562527  0.8
26.3  0.472674  0.8
26.4  0.378898  0.8
26.5  0.282135  0.8
26.6  0.183353  0.8
26.7  0.0835375  0.8
26.8  -0.0163129  0.8
26.9  -0.115201  0.8
27  -0.212139  0.8
27.1  -0.306158  0.8
27.2  -0.396318  0.8
27.3  -0.481719  0.8
27.4  -0.561508  0.8
27.5  -0.634887  0.8
27.6  -0.701123  0.8
27.7  -0.759554  0.8
27.8  -0.809597  0.8
27.9  -0.850751  0.8
28  -0.882606  0.8
28.1  -0.904842  0.8
28.2  -0.917239  0.8
28.3  -0.919671  0.8
28.4  -0.912114  0.8
28.5  -0.894645  0.8
28.6  -0.867438  0.8
28.7  -0.830764  0.8
28.8  -0.78499  0.8
28.9  -0.730573  0.8
29  -0.668058  0.8
29.1  -0.598068  0.8
29.2  -0.521302  0.8
29.3  -0.438529  0.8
29.4  -0.350575  0.8
29.5  -0.258319  0.8
29.6  -0.162683  0.8
29.7  -0.0646213  0.8
29.8  0.0348851  0.8
29.9  0.134842  0.8
30  0.234251  0.8
30.1  0.332119  0.8
30.2  0.427468  0.8
30.3  0.519345  0.8
30.4  0.606833  0.8
30.5  0.689056  0.8
30.6  0.765194  0.8
30.7  0.834485  0.8
30.8  0.896239  0.8
30.9  0.949836  0.8
31  0.994742  0.8
31.1  1.03051  0.8
31.2  1.05678  0.8
31.3  1.07329  0.8
31.4  1.07987  0.8
31.5  1.07647  0.8
31.6  1.06311  0.8
31.7  1.03992  0.8
31.8  1.00715  0.8
31.9  0.965107  0.8
32  0.914223  0.8
32.1  0.855005  0.8
32.2  0.788043  0.8
32.3  0.714006  0.8
32.4  0.633635  0.8
32.5  0.547732  0.8
32.6  0.457155  0.8
32.7  0.36281  0.8
32.8  0.26564  0.8
32.9  0.166614  0.8
33  0.0667233  0.8
33.1  -0.033035  0.8
33.2  -0.131664  0.8
33.3  -0.228178  0.8
33.4  -0.321613  0.8
33.5  -0.411035  0.8
33.6  -0.49555  0.8
33.7  -0.574316  0.8
33.8  -0.646543  0.8
33.9  -0.711511  0.8
34  -0.76857  0.8
34.1  -0.817151  0.8
34.2  -0.856768  0.8
34.3  -0.887025  0.8
34.4  -0.907619  0.8
34.5  -0.918346  0.8
34.6  -0.919098  0.8
34.7  -0.909867  0.8
34.8  -0.890745  0.8
34.9  -0.861924  0.8
35  -0.823692  0.8
35.1  -0.776431  0.8
35.2  -0.720612  0.8
35.3  -0.656794  0.8
35.4  -0.585613  0.8
35.5  -0.507783  0.8
35.6  -0.424079  0.8
35.7  -0.335339  0.8
35.8  -0.242449  0.8
35.9  -0.146337  0.8
36  -0.0479637  0.8
36.1  0.0516883  0.8
36.2  0.151623  0.8
36.3  0.250842  0.8
36.4  0.348355  0.8
36.5  0.443185  0.8
36.6  0.534387  0.8
36.7  0.621049  0.8
36.8  0.702305  0.8
36.9  0.777344  0.8
37  0.845414  0.8
37.1  0.905837  0.8
37.2  0.958008  0.8
37.3  1.00141  0.8
37.4  1.0356  0.8
37.5  1.06024  0.8
37.6  1.07509  0.8
37.7  1.08  0.8
37.8  1.07492  0.8
37.9  1.05989  0.8
38  1.03507  0.8
38.1  1.00071  0.8
38.2  0.957156  0.8
38.3  0.904834  0.8
38.4  0.84427  0.8
38.5  0.776069  0.8
38.6  0.700914  0.8
38.7  0.619555  0.8
38.8  0.532804  0.8
38.9  0.44153  0.8
39  0.346643  0.8
39.1  0.249092  0.8
39.2  0.149851  0.8
39.3  0.0499127  0.8
39.4  -0.0497252  0.8
39.5  -0.148067  0.8
39.6  -0.24413  0.8
39.7  -0.336954  0.8
39.8  -0.425613  0.8
39.9  -0.509219  0.8
40  -0.586938  0.8
40.1  -0.657993  0.8
40.2  -0.721675  0.8
40.3  -0.777346  0.8
40.4  -0.824451  0.8
40.5  -0.862519  0.8
40.6  -0.89117  0.8
40.7  -0.910117  0.8
40.8  -0.919172  0.8
40.9  -0.918243  0.8
41  -0.907339  0.8
41.1  -0.886571  0.8
41.2  -0.856145  0.8
41.3  -0.816365  0.8
41.4  -0.767629  0.8
41.5  -0.710424  0.8
41.6  -0.645321  0.8
41.7  -0.572971  0.8
41.8  -0.494097  0.8
41.9  -0.409487  0.8
42  -0.319985  0.8
42.1  -0.226488  0.8
42.2  -0.129928  0.8
42.3  -0.0312699  0.8
42.4  0.0684994  0.8
42.5  0.168384  0.8
42.6  0.267385  0.8
42.7  0.364514  0.8
42.8  0.4588  0.8
42.9  0.549301  0.8
43  0.635113  0.8
43.1  0.715379  0.8
43.2  0.789296  0.8
43.3  0.856126  0.8
43.4  0.915202  0.8
43.5  0.965932  0.8
43.6  1.00781  0.8
43.7  1.04042  0.8
43.8  1.06343  0.8
43.9  1.07662  0.8
44  1.07984  0.8
44.1  1.07308  0.8
44.2  1.0564  0.8
44.3  1.02996  0.8
44.4  0.994023  0.8
44.5  0.948958  0.8
44.6  0.895211  0.8
44.7  0.833318  0.8
44.8  0.763899  0.8
44.9  0.687646  0.8
45  0.605322  0.8
45.1  0.517749  0.8
45.2  0.425802  0.8
45.3  0.3304  0.8
45.4  0.232496  0.8
45.5  0.133069  0.8
45.6  0.0331107  0.8
45.7  -0.0663787  0.8
45.8  -0.164405  0.8
45.9  -0.25999  0.8
46  -0.352178  0.8
46.1  -0.440047  0.8
46.2  -0.522721  0.8
46.3  -0.599372  0.8
46.4  -0.669235  0.8
46.5  -0.731612  0.8
46.6  -0.78588  0.8
46.7  -0.831496  0.8
46.8  -0.868005  0.8
46.9  -0.895041  0.8
47  -0.912335  0.8
47.1  -0.919715  0.8
47.2  -0.917105  0.8
47.3  -0.904533  0.8
47.4  -0.882123  0.8
47.5  -0.8501  0.8
47.6  -0.808784  0.8
47.7  -0.758588  0.8
47.8  -0.700013  0.8
47.9  -0.633644  0.8
48  -0.560144  0.8
48.1  -0.480249  0.8
48.2  -0.394755  0.8
48.3  -0.304518  0.8
48.4  -0.21044  0.8
48.5  -0.113459  0.8
48.6  -0.0145447  0.8
48.7  0.0853138  0.8
48.8  0.185119  0.8
48.9  0.283874  0.8
49  0.380593  0.8
49.1  0.474307  0.8
49.2  0.564082  0.8
49.3  0.64902  0.8
49.4  0.728273  0.8
49.5  0.801048  0.8
49.6  0.866619  0.8
49.7  0.92433  0.8
49.8  0.973605  0.8
49.9  1.01395  0.8
50  1.04497  0.8
50.1  1.06634  0.8
50.2  1.07786  0.8
50.3  1.0794  0.8
50.4  1.07097  0.8
50.5  1.05263  0.8
50.6  1.02457  0.8
50.7  0.987073  0.8
50.8  0.940515  0.8
50.9  0.885358  0.8
51  0.822154  0.8
51.1  0.751535  0.8
51.2  0.674207  0.8
51.3  0.590941  0.8
51.4  0.50257  0.8
51.5  0.409977  0.8
51.6  0.314086  0.8
51.7  0.215857  0.8
51.8  0.116271  0.8
51.9  0.0163219  0.8
52  -0.0829908  0.8
52.1  -0.180675  0.8
52.2  -0.275754  0.8
52.3  -0.367279  0.8
52.4  -0.454335  0.8
52.5  -0.536052  0.8
52.6  -0.611614  0.8
52.7  -0.680265  0.8
52.8  -0.74132  0.8
52.9  -0.794169  0.8
53  -0.838283  0.8
53.1  -0.873222  0.8
53.2  -0.898636  0.8
53.3  -0.914273  0.8
53.4  -0.919975  0.8
53.5  -0.915686  0.8
53.6  -0.901448  0.8
53.7  -0.877403  0.8
53.8  -0.843793  0.8
53.9  -0.800953  0.8
54  -0.74931  0.8
54.1  -0.689381  0.8
54.2  -0.621765  0.8
54.3  -0.547136  0.8
54.4  -0.466242  0.8
54.5  -0.37989  0.8
54.6  -0.288943  0.8
54.7  -0.194309  0.8
54.8  -0.096935  0.8
54.9  0.00220724  0.8
55  0.102127  0.8
55.1  0.201825  0.8
55.2  0.300306  0.8
55.3  0.396586  0.8
55.4  0.489703  0.8
55.5  0.578726  0.8
55.6  0.662766  0.8
55.7  0.740983  0.8
55.8  0.812596  0.8
55.9  0.876889  0.8
56  0.93322  0.8
56.1  0.981026  0.8
56.2  1.01983  0.8
56.3  1.04924  0.8
56.4  1.06897  0.8
56.5  1.07882  0.8
56.6  1.07868  0.8
56.7  1.06857  0.8
56.8  1.04858  0.8
56.9  1.01892  0.8
57  0.979867  0.8
57.1  0.931827  0.8
57.2  0.875277  0.8
57.3  0.81078  0.8
57.4  0.738982  0.8
57.5  0.660599  0.8
57.6  0.576415  0.8
57.7  0.487271  0.8
57.8  0.394058  0.8
57.9  0.297707  0.8
58  0.19918  0.8
58.1  0.0994629  0.8
58.2  -0.000448877  0.8
58.3  -0.0995568  0.8
58.4  -0.196871  0.8
58.5  -0.291418  0.8
58.6  -0.382254  0.8
58.7  -0.468472  0.8
58.8  -0.54921  0.8
58.9  -0.62366  0.8
59  -0.69108  0.8
59.1  -0.750796  0.8
59.2  -0.80221  0.8
59.3  -0.84481  0.8
59.4  -0.878169  0.8
59.5  -0.901955  0.8
59.6  -0.915929  0.8
59.7  -0.919953  0.8
59.8  -0.913985  0.8
59.9  -0.898085  0.8
60  -0.872413  0.8
60.1  -0.837225  0.8
60.2  -0.792872  0.8
60.3  -0.739797  0.8
60.4  -0.678532  0.8
60.5  -0.609687  0.8
60.6  -0.533951  0.8
60.7  -0.452081  0.8
60.8  -0.364895  0.8
60.9  -0.273263  0.8
61  -0.178102  0.8
61.1  -0.0803614  0.8
61.2  0.0189812  0.8
61.3  0.118933  0.8
61.4  0.218497  0.8
61.5  0.316676  0.8
61.6  0.412491  0.8
61.7  0.504983  0.8
61.8  0.593229  0.8
61.9  0.676347  0.8
62  0.753507  0.8
62.1  0.823937  0.8
62.2  0.886934  0.8
62.3  0.941869  0.8
62.4  0.988192  0.8
62.5  1.02544  0.8
62.6  1.05324  0.8
62.7  1.07132  0.8
62.8  1.07949  0.8
62.9  1.07768  0.8
63  1.0659  0.8
63.1  1.04426  0.8
63.2  1.013  0.8
63.3  0.972406  0.8
63.4  0.9229  0.8
63.5  0.864971  0.8
63.6  0.799199  0.8
63.7  0.726242  0.8
63.8  0.646827  0.8
63.9  0.561749  0.8
64  0.471857  0.8
64.1  0.37805  0.8
64.2  0.281265  0.8
64.3  0.182469  0.8
64.4  0.0826494  0.8
64.5  -0.0171969  0.8
64.6  -0.116072  0.8
64.7  -0.212988  0.8
64.8  -0.306977  0.8
64.9  -0.397099  0.8
65  -0.482454  0.8
65.1  -0.562189  0.8
65.2  -0.635508  0.8
65.3  -0.701677  0.8
65.4  -0.760037  0.8
65.5  -0.810002  0.8
65.6  -0.851076  0.8
65.7  -0.882846  0.8
65.8  -0.904996  0.8
65.9  -0.917304  0.8
66  -0.919647  0.8
66.1  -0.912003  0.8
66.2  -0.894446  0.8
66.3  -0.867153  0.8
66.4  -0.830397  0.8
66.5  -0.784544  0.8
66.6  -0.730053  0.8
66.7  -0.667468  0.8
66.8  -0.597414  0.8
66.9  -0.520593  0.8
67  -0.43777  0.8
67.1  -0.349774  0.8
67.2  -0.257483  0.8
67.3  -0.161821  0.8
67.4  -0.0637424  0.8
67.5  0.0357724  0.8
67.6  0.135729  0.8
67.7  0.235129  0.8
67.8  0.332979  0.8
67.9  0.428301  0.8
68  0.520143  0.8
68.1  0.607587  0.8
68.2  0.68976  0.8
68.3  0.76584  0.8
68.4  0.835068  0.8
68.5  0.896751  0.8
68.6  0.950274  0.8
68.7  0.995101  0.8
68.8  1.03078  0.8
68.9  1.05697  0.8
69  1.07339  0.8
69.1  1.07989  0.8
69.2  1.07639  0.8
69.3  1.06294  0.8
69.4  1.03967  0.8
69.5  1.00681  0.8
69.6  0.964693  0.8
69.7  0.913733  0.8
69.8  0.854443  0.8
69.9  0.787415  0.8
70  0.713319  0.8
70.1  0.632895  0.8
70.2  0.546947  0.8
70.3  0.456333  0.8
70.4  0.361958  0.8
70.5  0.264767  0.8
70.6  0.165729  0.8
70.7  0.0658352  0.8
70.8  -0.0339175  0.8
70.9  -0.132532  0.8
71  -0.229023  0.8
71.1  -0.322426  0.8
71.2  -0.411808  0.8
71.3  -0.496277  0.8
71.4  -0.574987  0.8
71.5  -0.647153  0.8
71.6  -0.712053  0.8
71.7  -0.76904  0.8
71.8  -0.817543  0.8
71.9  -0.857078  0.8
72  -0.887251  0.8
72.1  -0.907758  0.8
72.2  -0.918397  0.8
72.3  -0.91906  0.8
72.4  -0.90974  0.8
72.5  -0.890532  0.8
72.6  -0.861626  0.8
72.7  -0.823312  0.8
72.8  -0.775972  0.8
72.9  -0.720079  0.8
73  -0.656193  0.8
73.1  -0.58495  0.8
73.2  -0.507064  0.8
73.3  -0.423312  0.8
73.4  -0.334531  0.8
73.5  -0.241608  0.8
73.6  -0.145472  0.8
73.7  -0.0470828  0.8
73.8  0.0525761  0.8
73.9  0.152509  0.8
74  0.251717  0.8
74.1  0.34921  0.8
74.2  0.444013  0.8
74.3  0.535178  0.8
74.4  0.621796  0.8
74.5  0.703  0.8
74.6  0.77798  0.8
74.7  0.845985  0.8
74.8  0.906337  0.8
74.9  0.958433  0.8
75  1.00175  0.8
75.1  1.03586  0.8
75.2  1.06042  0.8
75.3  1.07518  0.8
75.4  1.08  0.8
75.5  1.07483  0.8
75.6  1.05971  0.8
75.7  1.03481  0.8
75.8  1.00037  0.8
75.9  0.95673  0.8
76  0.904331  0.8
76.1  0.843697  0.8
76.2  0.775431  0.8
76.3  0.700218  0.8
76.4  0.618807  0.8
76.5  0.532012  0.8
76.6  0.440702  0.8
76.7  0.345787  0.8
76.8  0.248216  0.8
76.9  0.148965  0.8
77  0.049025  0.8
77.1  -0.0506058  0.8
77.2  -0.148932  0.8
77.3  -0.24497  0.8
77.4  -0.337761  0.8
77.5  -0.426379  0.8
77.6  -0.509936  0.8
77.7  -0.5876  0.8
77.8  -0.658592  0.8
77.9  -0.722205  0.8
78  -0.777803  0.8
78.1  -0.82483  0.8
78.2  -0.862816  0.8
78.3  -0.891382  0.8
78.4  -0.910242  0.8
78.5  -0.919207  0.8
78.6  -0.91819  0.8
78.7  -0.907198  0.8
78.8  -0.886343  0.8
78.9  -0.855832  0.8
79  -0.815971  0.8
79.1  -0.767158  0.8
79.2  -0.70988  0.8
79.3  -0.644709  0.8
79.4  -0.572298  0.8
79.5  -0.49337  0.8
79.6  -0.408712  0.8
79.7  -0.319171  0.8
79.8  -0.225642  0.8
79.9  -0.129059  0.8
80  -0.0303872  0.8
80.1  0.0693875  0.8
80.2  0.169268  0.8
80.3  0.268257  0.8
80.4  0.365365  0.8
80.5  0.459622  0.8
80.6  0.550085  0.8
80.7  0.635852  0.8
80.8  0.716065  0.8
80.9  0.789922  0.8
81  0.856686  0.8
81.1  0.91569  0.8
81.2  0.966343  0.8
81.3  1.00814  0.8
81.4  1.04067  0.8
81.5  1.06359  0.8
81.6  1.07669  0.8
81.7  1.07983  0.8
81.8  1.07298  0.8
81.9  1.0562  0.8
82  1.02968  0.8
82.1  0.993663  0.8
82.2  0.948518  0.8
82.3  0.894696  0.8
82.4  0.832734  0.8
82.5  0.763251  0.8
82.6  0.686941  0.8
82.7  0.604566  0.8
82.8  0.51695  0.8
82.9  0.424969  0.8
83  0.32954  0.8
83.1  0.231618  0.8
83.2  0.132182  0.8
83.3  0.0322235  0.8
83.4  -0.0672572  0.8
83.5  -0.165267  0.8
83.6  -0.260825  0.8
83.7  -0.352979  0.8
83.8  -0.440806  0.8
83.9  -0.523429  0.8
84  -0.600023  0.8
84.1  -0.669823  0.8
84.2  -0.732131  0.8
84.3  -0.786324  0.8
84.4  -0.831861  0.8
84.5  -0.868287  0.8
84.6  -0.895238  0.8
84.7  -0.912445  0.8
84.8  -0.919735  0.8
84.9  -0.917037  0.8
85  -0.904377  0.8
85.1  -0.881881  0.8
85.2  -0.849774  0.8
85.3  -0.808377  0.8
85.4  -0.758104  0.8
85.5  -0.699457  0.8
85.6  -0.633021  0.8
85.7  -0.559462  0.8
85.8  -0.479513  0.8
85.9  -0.393974  0.8
86  -0.303698  0.8
86.1  -0.20959  0.8
86.2  -0.112587  0.8
86.3  -0.0136605  0.8
86.4  0.086202  0.8
86.5  0.186002  0.8
86.6  0.284744  0.8
86.7  0.38144  0.8
86.8  0.475123  0.8
86.9  0.564859  0.8
87  0.64975  0.8
87.1  0.728949  0.8
87.2  0.801663  0.8
87.3  0.867167  0.8
87.4  0.924806  0.8
87.5  0.974003  0.8
87.6  1.01427  0.8
87.7  1.0452  0.8
87.8  1.06648  0.8
87.9  1.07791  0.8
88  1.07937  0.8
88.1  1.07085  0.8
88.2  1.05242  0.8
88.3  1.02428  0.8
88.4  0.986699  0.8
88.5  0.940062  0.8
88.6  0.884831  0.8
88.7  0.821559  0.8
88.8  0.750877  0.8
88.9  0.673492  0.8
89  0.590177  0.8
89.1  0.501765  0.8
89.2  0.409138  0.8
89.3  0.313223  0.8
89.4  0.214977  0.8
89.5  0.115383  0.8
89.6  0.0154356  0.8
89.7  -0.083867  0.8
89.8  -0.181532  0.8
89.9  -0.276584  0.8
90  -0.368074  0.8
90.1  -0.455086  0.8
90.2  -0.536752  0.8
90.3  -0.612255  0.8
90.4  -0.680842  0.8
90.5  -0.741826  0.8
90.6  -0.7946  0.8
90.7  -0.838634  0.8
90.8  -0.87349  0.8
90.9  -0.898819  0.8
91  -0.914367  0.8
91.1  -0.919981  0.8
91.2  -0.915603  0.8
91.3  -0.901277  0.8
91.4  -0.877147  0.8
91.5  -0.843453  0.8
91.6  -0.800532  0.8
91.7  -0.748813  0.8
91.8  -0.688813  0.8
91.9  -0.621132  0.8
92  -0.546444  0.8
92.1  -0.465498  0.8
92.2  -0.379101  0.8
92.3  -0.288117  0.8
92.4  -0.193455  0.8
92.5  -0.0960608  0.8
92.6  0.00309274  0.8
92.7  0.103015  0.8
92.8  0.202707  0.8
92.9  0.301173  0.8
93  0.397429  0.8
93.1  0.490513  0.8
93.2  0.579496  0.8
93.3  0.663488  0.8
93.4  0.74165  0.8
93.5  0.813201  0.8
93.6  0.877426  0.8
93.7  0.933683  0.8
93.8  0.981411  0.8
93.9  1.02013  0.8
94  1.04946  0.8
94.1  1.0691  0.8
94.2  1.07886  0.8
94.3  1.07864  0.8
94.4  1.06844  0.8
94.5  1.04836  0.8
94.6  1.01861  0.8
94.7  0.979479  0.8
94.8  0.931362  0.8
94.9  0.874738  0.8
95  0.810174  0.8
95.1  0.738313  0.8
95.2  0.659876  0.8
95.3  0.575644  0.8
95.4  0.48646  0.8
95.5  0.393214  0.8
95.6  0.29684  0.8
95.7  0.198298  0.8
95.8  0.0985749  0.8
95.9  -0.00133412  0.8
96  -0.10043  0.8
96.1  -0.197724  0.8
96.2  -0.292243  0.8
96.3  -0.383042  0.8
96.4  -0.469215  0.8
96.5  -0.5499  0.8
96.6  -0.624291  0.8
96.7  -0.691645  0.8
96.8  -0.75129  0.8
96.9  -0.802628  0.8
97  -0.845148  0.8
97.1  -0.878423  0.8
97.2  -0.902123  0.8
97.3  -0.916009  0.8
97.4  -0.919944  0.8
97.5  -0.913887  0.8
97.6  -0.8979  0.8
97.7  -0.872142  0.8
97.8  -0.83687  0.8
97.9  -0.792438  0.8
98  -0.739288  0.8
98.1  -0.677953  0.8
98.2  -0.609044  0.8
98.3  -0.53325  0.8
98.4  -0.451329  0.8
98.5  -0.364099  0.8
98.6  -0.272432  0.8
98.7  -0.177243  0.8
98.8  -0.0794846  0.8
98.9  0.0198677  0.8
99  0.119821  0.8
99.1  0.219376  0.8
99.2  0.317539  0.8
99.3  0.413328  0.8
99.4  0.505787  0.8
99.5  0.593991  0.8
99.6  0.67706  0.8
99.7  0.754163  0.8
99.8  0.824531  0.8
99.9  0.887459  0.8
